wavenumber (/cm),baseline value (/cm),baseline-subtracted absorbance (/cm),
3.199379000000000360e+03,1.998801916879529017e-01,5.337730257792827615e-12
3.201307999999999993e+03,1.989603070815064711e-01,5.196470645558504131e-03
3.203235999999999876e+03,1.985466267387892003e-01,1.005675071442846402e-02
3.205164999999999964e+03,1.986331359603354940e-01,1.763226796481265346e-02
3.207092999999999847e+03,1.992141633427308989e-01,2.334060616890787365e-02
3.209020999999999731e+03,2.002840452496457146e-01,3.045648418896673704e-02
3.210949999999999818e+03,2.018381323905487079e-01,3.466346505354067631e-02
3.212877999999999702e+03,2.038692317710228963e-01,4.053400875841539630e-02
3.214807000000000244e+03,2.063738647675563698e-01,4.573133833604914322e-02
3.216735999999999876e+03,2.093455133908719290e-01,4.958419906919164788e-02
3.218664000000000215e+03,2.127766913617961109e-01,5.316465961949079500e-02
3.220592999999999847e+03,2.166653724261777825e-01,5.711258284538756058e-02
3.222520999999999731e+03,2.210019430622196523e-01,5.805328286201572041e-02
3.224449000000000069e+03,2.257827222674677614e-01,6.095963282153249452e-02
3.226377999999999702e+03,2.310049507514122524e-01,6.336519986474486998e-02
3.228305999999999585e+03,2.366576323674962623e-01,6.738960633629176300e-02
3.230235000000000127e+03,2.427410453219636111e-01,6.836461419423911501e-02
3.232164000000000215e+03,2.492467816218777443e-01,7.115828455794837026e-02
3.234092000000000098e+03,2.561655576582779759e-01,7.144512239649114527e-02
3.236020999999999731e+03,2.634989650105126202e-01,7.315895374804504137e-02
3.237949000000000069e+03,2.712338186465785839e-01,7.320593489061866244e-02
3.239876999999999953e+03,2.793682349010850885e-01,7.425225802451929091e-02
3.241805999999999585e+03,2.879011591776361456e-01,7.481221371145552190e-02
3.243734000000000378e+03,2.968181627775265952e-01,7.714692165880365771e-02
3.245663000000000011e+03,3.061229101376738981e-01,7.666691186141316727e-02
3.247592000000000098e+03,3.158052885655706632e-01,7.406919797025746099e-02
3.249519999999999982e+03,3.258544024129150785e-01,7.126791616307737165e-02
3.251447999999999865e+03,3.362695944115330349e-01,7.194583233424522994e-02
3.253376999999999953e+03,3.470509668904924183e-01,7.235911982790077523e-02
3.255304999999999836e+03,3.581817599415444420e-01,7.171212412965544125e-02
3.257234000000000378e+03,3.696679344593576388e-01,6.846533801896259597e-02
3.259162000000000262e+03,3.814919997948891250e-01,6.642904082583167558e-02
3.261090999999999894e+03,3.936606360057339771e-01,6.279874327313383908e-02
3.263019999999999982e+03,4.061622110066309688e-01,6.090762012070816134e-02
3.264947999999999865e+03,4.189844024176636594e-01,5.854526440114082853e-02
3.266875999999999749e+03,4.321280260237472248e-01,5.729461204106311989e-02
3.268804999999999836e+03,4.455945645804604283e-01,5.439288407312203866e-02
3.270732999999999720e+03,4.593644741771640838e-01,5.398559428472515798e-02
3.272662000000000262e+03,4.734464533839854994e-01,5.290338687160534015e-02
3.274590999999999894e+03,4.878278521719039418e-01,5.207059602526631359e-02
3.276519000000000233e+03,5.024953997144621098e-01,4.700939261780612277e-02
3.278447999999999865e+03,5.174587257370149018e-01,4.279344222282044363e-02
3.280375999999999749e+03,5.326967344590229914e-01,3.805862838899165546e-02
3.282304000000000087e+03,5.482115294244067627e-01,3.625218577413247267e-02
3.284232999999999720e+03,5.640057885048008757e-01,3.185340820902848868e-02
3.286160999999999603e+03,5.800575543953527813e-01,2.850474592413587693e-02
3.288090000000000146e+03,5.963778927398379892e-01,2.414355865222028719e-02
3.290019000000000233e+03,6.129529583859039121e-01,2.255594165973717757e-02
3.291947000000000116e+03,6.297683780512670637e-01,2.015060871276763699e-02
3.293875000000000000e+03,6.468270994973863708e-01,1.762406435473606869e-02
3.295804000000000087e+03,6.641325753262208309e-01,1.165587743507567886e-02
3.297731999999999971e+03,6.816612813991014264e-01,8.245154018515998828e-03
3.299660999999999603e+03,6.994258154545605066e-01,3.144928497972321324e-03
3.301589000000000397e+03,7.174021773889762699e-01,2.940800277280164465e-04
3.303518000000000029e+03,7.356034293170523597e-01,-3.282571261370437199e-03
3.305447000000000116e+03,7.540147162699213368e-01,-5.087285872842572942e-03
3.307375000000000000e+03,7.726207478071955848e-01,-7.885467113448951793e-03
3.309302999999999884e+03,7.914254351726413006e-01,-9.855375839004087979e-03
3.311231999999999971e+03,8.104331018112134188e-01,-1.549357648031457479e-02
3.313159999999999854e+03,8.296184587397874566e-01,-1.736720360514554251e-02
3.315089000000000397e+03,8.489958222144196043e-01,-2.198760678767430754e-02
3.317017000000000280e+03,8.685395199445338221e-01,-2.519287457712215961e-02
3.318945999999999913e+03,8.882642399048563675e-01,-3.024849367026027913e-02
3.320875000000000000e+03,9.081543026140934671e-01,-3.340875263691400754e-02
3.322802999999999884e+03,9.281936857714754296e-01,-3.679364013021602098e-02
3.324730999999999767e+03,9.483870788044441724e-01,-3.726316278436248020e-02
3.326659999999999854e+03,9.687394906995905330e-01,-3.963291835819382491e-02
3.328587999999999738e+03,9.892242382347831153e-01,-4.240999816175716752e-02
3.330517000000000280e+03,1.009856985577243904e+00,-4.833370853479768137e-02
3.332445000000000164e+03,1.030610758850343700e+00,-5.017260275723534058e-02
3.334374000000000251e+03,1.051501501292477769e+00,-5.181756701589201874e-02
3.336302000000000135e+03,1.072501971535530174e+00,-5.086116824935937863e-02
3.338230999999999767e+03,1.093628368731515366e+00,-5.419660241476509377e-02
3.340159000000000106e+03,1.114853207181113248e+00,-5.612203420073869076e-02
3.342087999999999738e+03,1.136192918781489425e+00,-5.892797126893811743e-02
3.344015999999999622e+03,1.157619796671497170e+00,-5.970902533420807679e-02
3.345945000000000164e+03,1.179150482332261163e+00,-6.305052797352117544e-02
3.347873000000000047e+03,1.200757070895633660e+00,-6.292731279431040825e-02
3.349802000000000135e+03,1.222456390267325332e+00,-6.344224147681853943e-02
3.351730000000000018e+03,1.244220360740655451e+00,-6.132099971829130247e-02
3.353659000000000106e+03,1.266065973476543149e+00,-6.106597347654285635e-02
3.355586999999999989e+03,1.287964997091876285e+00,-5.873975747526283264e-02
3.357515999999999622e+03,1.309934562847047346e+00,-5.857787640250156080e-02
3.359444000000000415e+03,1.331946310839157377e+00,-5.503850618374905856e-02
3.361373000000000047e+03,1.354017489265970653e+00,-5.358161523584725749e-02
3.363302000000000135e+03,1.376131106672801252e+00,-4.897912127800441162e-02
3.365230000000000018e+03,1.398270083618626813e+00,-4.463019315764982231e-02
3.367157999999999902e+03,1.420440294070431264e+00,-3.899232510648809047e-02
3.369086999999999989e+03,1.442647676795786538e+00,-3.657396616137353895e-02
3.371014999999999873e+03,1.464863625327780028e+00,-3.229174034375481561e-02
3.372944000000000415e+03,1.487105599681854073e+00,-2.710674071334673307e-02
3.374872000000000298e+03,1.509344957528810482e+00,-1.774409034487578474e-02
3.376800999999999931e+03,1.531599183168509626e+00,-1.070119138393654801e-02
3.378729000000000269e+03,1.553839621562474349e+00,7.872611394883488600e-04
3.380657999999999902e+03,1.576083758137428958e+00,1.068369964440551989e-02
3.382585999999999785e+03,1.598302948314085370e+00,2.424041088262840482e-02
3.384514999999999873e+03,1.620514655478473287e+00,3.819597893503678954e-02
3.386442999999999756e+03,1.642690268674414256e+00,5.301488878793159110e-02
3.388372000000000298e+03,1.664847206081503828e+00,6.433809743287288718e-02
3.390300000000000182e+03,1.686956913526046264e+00,8.398215539225550863e-02
3.392229000000000269e+03,1.709036740827286849e+00,1.061093112037492237e-01
3.394157000000000153e+03,1.731058213760661602e+00,1.264212476724730916e-01
3.396085999999999785e+03,1.753038590609321545e+00,1.443906654381452714e-01
3.398014000000000124e+03,1.774949500263574009e+00,1.672047671942078484e-01
3.399942999999999756e+03,1.796808086312921660e+00,1.864803664483749568e-01
3.401870999999999640e+03,1.818586103922825714e+00,2.125047221839748701e-01
3.403800000000000182e+03,1.840300558826129418e+00,2.380552147932224472e-01
3.405728000000000065e+03,1.861923355623730458e+00,2.662760966811532626e-01
3.407657000000000153e+03,1.883471339033349068e+00,2.924026910898822607e-01
3.409585000000000036e+03,1.904916586256149458e+00,3.230592238762097779e-01
3.411514000000000124e+03,1.926275757825351320e+00,3.517685141965554152e-01
3.413442000000000007e+03,1.947521126706305949e+00,3.854158883553093773e-01
3.415370999999999640e+03,1.968669146089268907e+00,4.164403929340085853e-01
3.417299000000000433e+03,1.989692307860423170e+00,4.505655652568760772e-01
3.419228000000000065e+03,2.010606834710415569e+00,4.869057166360013511e-01
3.421155999999999949e+03,2.031385460608362337e+00,5.273034942067909014e-01
3.423085000000000036e+03,2.052044154576833535e+00,5.566881594350334694e-01
3.425012999999999920e+03,2.072555915834527696e+00,5.880203050691692468e-01
3.426942000000000007e+03,2.092936436576565029e+00,6.212192001190075530e-01
3.428869999999999891e+03,2.113159004428780463e+00,6.580288093548807282e-01
3.430799000000000433e+03,2.133239011595833290e+00,6.884383046980966370e-01
3.432727000000000317e+03,2.153150057278253371e+00,7.219640458709939423e-01
3.434655999999999949e+03,2.172907210520861554e+00,7.506858976489239055e-01
3.436584000000000287e+03,2.192484405268260161e+00,7.801171465345699829e-01
3.438512999999999920e+03,2.211896364243330027e+00,8.055568534654780066e-01
3.440440999999999804e+03,2.231117379287752556e+00,8.329104618806644211e-01
3.442369999999999891e+03,2.250161803645823966e+00,8.577250060301233603e-01
3.444297999999999774e+03,2.269004310223863286e+00,8.788882046095460865e-01
3.446227000000000317e+03,2.287658859619114082e+00,9.004732718277139725e-01
3.448155000000000200e+03,2.306100528963725083e+00,9.156829032590048101e-01
3.450084000000000287e+03,2.324342863050333108e+00,9.119693231660068733e-01
3.452012000000000171e+03,2.342361366393561184e+00,9.167771548296252959e-01
3.453940999999999804e+03,2.360169144822975795e+00,9.151355105855136784e-01
3.455869000000000142e+03,2.377742153402323311e+00,9.133406854840293576e-01
3.457797999999999774e+03,2.395093035828722350e+00,9.047631942032268171e-01
3.459725999999999658e+03,2.412198220878053689e+00,8.962864892999471422e-01
3.461655000000000200e+03,2.429069866951067524e+00,8.820460618485679305e-01
3.463583000000000084e+03,2.445684899706975557e+00,8.590480989237869736e-01
3.465512000000000171e+03,2.462054969081691524e+00,8.312437529630365418e-01
3.467440000000000055e+03,2.478157520774402656e+00,8.065709137303898046e-01
3.469369000000000142e+03,2.494003673104998597e+00,7.706642867306934264e-01
3.471297000000000025e+03,2.509571414969286707e+00,7.342750021918273973e-01
3.473225999999999658e+03,2.524871309909030970e+00,6.944794431717546956e-01
3.475154000000000451e+03,2.539881913181488926e+00,6.535708481147235460e-01
3.477083000000000084e+03,2.554613210380011878e+00,6.054883414228182659e-01
3.479010999999999967e+03,2.569044346294504066e+00,5.642829015375365742e-01
3.480940000000000055e+03,2.583184705407802539e+00,5.203445049984054549e-01
3.482867999999999938e+03,2.597014045198193344e+00,4.654905189277771527e-01
3.484797000000000025e+03,2.610541125877716695e+00,4.043790019178103989e-01
3.486724999999999909e+03,2.623746340776051511e+00,3.525647044087962811e-01
3.488654000000000451e+03,2.636637802676887077e+00,2.949345387197350732e-01
3.490582000000000335e+03,2.649196563921577763e+00,2.356459737324616555e-01
3.492510999999999967e+03,2.661430066696084396e+00,1.794393993011773603e-01
3.494439000000000306e+03,2.673320045518266852e+00,1.323132269600542088e-01
3.496367999999999938e+03,2.684873248816984415e+00,8.434742667365924262e-02
3.498295999999999822e+03,2.696072116452342016e+00,3.656480732675415624e-02
3.500224999999999909e+03,2.706922679932176834e+00,-1.247189288634764637e-03
3.502152999999999793e+03,2.717408107613664470e+00,-2.390856402626173605e-02
3.504082000000000335e+03,2.727533690926065901e+00,-5.551520621588856841e-02
3.506010000000000218e+03,2.737283349888457451e+00,-9.043373783916397457e-02
3.507939000000000306e+03,2.746661612684874854e+00,-1.087850722923597857e-01
3.509867000000000189e+03,2.755653174164763186e+00,-1.181919692355073437e-01
3.511795999999999822e+03,2.764261776098464907e+00,-1.349235743640964102e-01
3.513724000000000160e+03,2.772472911328804912e+00,-1.439243033872257271e-01
3.515652999999999793e+03,2.780289512054878287e+00,-1.481010136523215337e-01
3.517580999999999676e+03,2.787697892269534350e+00,-1.424696859710401498e-01
3.519510000000000218e+03,2.794700151439428737e+00,-1.362211464188902710e-01
3.521438000000000102e+03,2.801283447870446253e+00,-1.193847714669775684e-01
3.523367000000000189e+03,2.807449025138339493e+00,-9.555833595531826319e-02
3.525295000000000073e+03,2.813184909023220825e+00,-8.096788483335259912e-02
3.527224000000000160e+03,2.818491464042381267e+00,-6.486526595931429995e-02
3.529152000000000044e+03,2.823357606614990800e+00,-4.923505983270004549e-02
3.531080999999999676e+03,2.827782799035958305e+00,-4.552127461788391116e-02
3.533009000000000015e+03,2.831756871529250930e+00,-3.564436582409413745e-02
3.534938000000000102e+03,2.835278361008931824e+00,-1.666813736675898383e-02
3.536865999999999985e+03,2.838338034656771924e+00,6.641426776363701379e-03
3.538795000000000073e+03,2.840933480844796577e+00,1.701608556323641608e-02
3.540722999999999956e+03,2.843056426885596011e+00,3.441162423261534542e-02
3.542652000000000044e+03,2.844703489433413779e+00,5.946812170305371126e-02
3.544579999999999927e+03,2.845867379100127437e+00,9.009793354250206221e-02
3.546509000000000015e+03,2.846543717664644646e+00,1.029017410300152591e-01
3.548436999999999898e+03,2.846726222189317923e+00,1.028105190247403655e-01
3.550365999999999985e+03,2.846409496421983931e+00,1.087570941759166132e-01
3.552294000000000324e+03,2.845588287038481212e+00,1.298738307159688077e-01
3.554222999999999956e+03,2.844256156592564366e+00,1.273253130559979240e-01
3.556150999999999840e+03,2.842408904535659531e+00,1.284035098869793501e-01
3.558079999999999927e+03,2.840039029065337672e+00,1.409080270734124340e-01
3.560007999999999811e+03,2.837143405571623589e+00,1.602744401609186298e-01
3.561936999999999898e+03,2.833713444727436581e+00,1.750211513474146940e-01
3.563864999999999782e+03,2.829747121031687129e+00,2.009443440527496350e-01
3.565794000000000324e+03,2.825234734465993824e+00,2.466616598744906241e-01
3.567722000000000207e+03,2.820175381800254399e+00,2.737064073371255901e-01
3.569650999999999840e+03,2.814558229170870618e+00,2.496772797291741952e-01
3.571579000000000178e+03,2.808383518768096110e+00,2.510060293834328604e-01
3.573507999999999811e+03,2.801639259724652220e+00,2.725243641913683845e-01
3.575435999999999694e+03,2.794326862820526003e+00,3.080578929987343173e-01
3.577364999999999782e+03,2.786433157016290352e+00,3.396759255943901934e-01
3.579292999999999665e+03,2.777960744848314789e+00,3.731175299120685906e-01
3.581222000000000207e+03,2.768895251936555724e+00,4.046853048868124247e-01
3.583150000000000091e+03,2.759240495734047727e+00,4.477928223855327516e-01
3.585079000000000178e+03,2.748980875368033594e+00,5.006334559875114110e-01
3.587007000000000062e+03,2.738121446368495526e+00,5.832888685561972153e-01
3.588935999999999694e+03,2.726645358198766189e+00,6.147444181590620005e-01
3.590864000000000033e+03,2.714558927637881425e+00,6.243103101530813603e-01
3.592792999999999665e+03,2.701844031319524220e+00,6.687150741117857677e-01
3.594720999999999549e+03,2.688508270427519165e+00,7.283573160626675147e-01
3.596650000000000091e+03,2.674532225614711933e+00,7.652658118111217433e-01
3.598577999999999975e+03,2.659924805629088951e+00,8.066053176023126881e-01
3.600507000000000062e+03,2.644665271972371556e+00,8.481656271604451902e-01
3.602434999999999945e+03,2.628763864125176042e+00,8.733253645375356200e-01
3.604364000000000033e+03,2.612198501280545315e+00,8.966330824711663539e-01
3.606291999999999916e+03,2.594980776807460643e+00,9.506079954426542855e-01
3.608220999999999549e+03,2.577087244424546952e+00,1.006147579856603080e+00
3.610149000000000342e+03,2.558530874559437507e+00,1.027453835618563183e+00
3.612077999999999975e+03,2.539286832294237684e+00,1.059391853237483083e+00
3.614005999999999858e+03,2.519369488270967850e+00,1.101229553262578875e+00
3.615934999999999945e+03,2.498752595777659735e+00,1.110465797649998976e+00
3.617862999999999829e+03,2.477451948827365413e+00,1.147338101378020170e+00
3.619791999999999916e+03,2.455439865756488871e+00,1.163698655466696152e+00
3.621719999999999800e+03,2.432733587120310403e+00,1.135730584490826978e+00
3.623649000000000342e+03,2.409303973123314790e+00,1.118407117702791886e+00
3.625577000000000226e+03,2.385169734031478583e+00,1.128770247712018282e+00
3.627505999999999858e+03,2.360300248764360731e+00,1.165245164289039792e+00
3.629434000000000196e+03,2.334715720452550158e+00,1.148766707662466580e+00
3.631362999999999829e+03,2.308384023565849930e+00,1.057118030290836508e+00
3.633290999999999713e+03,2.281326877267929376e+00,1.011647791832937848e+00
3.635219999999999800e+03,2.253510628414915118e+00,9.435021511378014480e-01
3.637147999999999683e+03,2.224958535366567958e+00,8.844332948479465273e-01
3.639077000000000226e+03,2.195635394201417512e+00,8.180238937949306788e-01
3.641005000000000109e+03,2.165566025635598635e+00,7.486557908865378863e-01
3.642934000000000196e+03,2.134713651809761359e+00,6.692765353194038980e-01
3.644862000000000080e+03,2.103104678961244645e+00,6.113909851190850731e-01
3.646790999999999713e+03,2.070700732129807875e+00,5.917593317679550324e-01
3.648719000000000051e+03,2.037529826231548213e+00,5.402542906100773479e-01
3.650647999999999683e+03,2.003551966046870803e+00,3.650890654455984929e-01
3.652575999999999567e+03,1.968796798332732578e+00,2.081452372674501561e-01
3.654505000000000109e+03,1.933222684448082873e+00,1.439658139544723880e-01
3.656432999999999993e+03,1.896860926156477944e+00,4.891497525840127203e-02
3.658362000000000080e+03,1.859668218224214797e+00,-6.303882525296944372e-02
3.660289999999999964e+03,1.821677540584460075e+00,-1.358605620358519506e-01
3.662219000000000051e+03,1.782843898258761328e+00,-2.073361392446126938e-01
3.664146999999999935e+03,1.743201972509268671e+00,-2.659484353116423616e-01
3.666075999999999567e+03,1.702705055440674187e+00,-3.055142749751336151e-01
3.668004000000000360e+03,1.661389552813488990e+00,-3.052793291713162827e-01
3.669932999999999993e+03,1.619207020654357621e+00,-3.108444008460511387e-01
3.671860999999999876e+03,1.576195612386072753e+00,-3.683133668360956126e-01
3.673789999999999964e+03,1.532305124791491835e+00,-3.558879636778453648e-01
3.675717999999999847e+03,1.487575482115971681e+00,-3.444102607558618967e-01
3.677646999999999935e+03,1.441954698739209562e+00,-3.845767891089038049e-01
3.679574999999999818e+03,1.395484492886680528e+00,-3.911999196324587036e-01
3.681504000000000360e+03,1.348111073381005554e+00,-3.957639716009964115e-01
3.683432000000000244e+03,1.299877975591698487e+00,-3.772981033872258028e-01
3.685360999999999876e+03,1.250729579608560016e+00,-3.423201775090622956e-01
3.687289000000000215e+03,1.200711261111791828e+00,-2.872208457763287814e-01
3.689217999999999847e+03,1.149765548306277196e+00,-2.143422256225708811e-01
3.691145999999999731e+03,1.097939680338640756e+00,-1.918522773263175996e-01
3.693074999999999818e+03,1.045174310362199321e+00,-1.904458758574067989e-01
3.695002999999999702e+03,9.915185641566495178e-01,-1.605486873880506149e-01
3.696932000000000244e+03,9.369111966643686173e-01,-1.174064043321003670e-01
3.698860000000000127e+03,8.814032434556793305e-01,-6.763441643605339060e-02
