wavenumber (/cm),baseline value (/cm),baseline-subtracted absorbance (/cm),
3.399942999999999756e+03,6.485649253733299702e+00,-1.954880701759975636e-12
3.401870999999999640e+03,6.565278818337901612e+00,7.669133091582924777e-02
3.403800000000000182e+03,6.643608277625844494e+00,1.529253044637064463e-01
3.405728000000000065e+03,6.720556419094464218e+00,2.389734316518046242e-01
3.407657000000000153e+03,6.796203064467590593e+00,3.192297713533056580e-01
3.409585000000000036e+03,6.870469782800228131e+00,4.153436500355924821e-01
3.411514000000000124e+03,6.943433614258083253e+00,5.061111618613169938e-01
3.413442000000000007e+03,7.015018909455648100e+00,6.140333293503212886e-01
3.415370999999999640e+03,7.085299926998231967e+00,7.143642521062458783e-01
3.417299000000000433e+03,7.154203799059814628e+00,8.258036636267549468e-01
3.419228000000000065e+03,7.221802002687127242e+00,9.454368032830231527e-01
3.421155999999999949e+03,7.288024451613637211e+00,1.079270324505763767e+00
3.423085000000000036e+03,7.352939841325678572e+00,1.178004188525068940e+00
3.425012999999999920e+03,7.416480867116661102e+00,1.284000476166919924e+00
3.426942000000000007e+03,7.478713442912976461e+00,1.396980586937768720e+00
3.428869999999999891e+03,7.539573045567976806e+00,1.522624715626054837e+00
3.430799000000000433e+03,7.599122807449475658e+00,1.628183162699777142e+00
3.432727000000000317e+03,7.657300986969403311e+00,1.744751251836564876e+00
3.434655999999999949e+03,7.714167934935630910e+00,1.846417885959890981e+00
3.436584000000000287e+03,7.769664691319576377e+00,1.951186054949079818e+00
3.438512999999999920e+03,7.823848825370987470e+00,2.043673562688713474e+00
3.440440999999999804e+03,7.876664158619405498e+00,2.143164199589552510e+00
3.442369999999999891e+03,7.928165478754635842e+00,2.235088252588646185e+00
3.444297999999999774e+03,7.978299388867526432e+00,2.315778969341426574e+00
3.446227000000000317e+03,8.027117895087940269e+00,2.398550015359820264e+00
3.448155000000000200e+03,8.074570382065303420e+00,2.461142304501859002e+00
3.450084000000000287e+03,8.120706074370900751e+00,2.462517806226113493e+00
3.452012000000000171e+03,8.165477138212281716e+00,2.492392264772792743e+00
3.453940999999999804e+03,8.208930016602607793e+00,2.501805058024256567e+00
3.455869000000000142e+03,8.251019657308916067e+00,2.511312432243322235e+00
3.457797999999999774e+03,8.291789721783970890e+00,2.499232666275730708e+00
3.459725999999999658e+03,8.331197939353842230e+00,2.488040866616305635e+00
3.461655000000000200e+03,8.369285189914080547e+00,2.458558093668010258e+00
3.463583000000000084e+03,8.406011984348424448e+00,2.400958164905308223e+00
3.465512000000000171e+03,8.441416420992936764e+00,2.328161937216016497e+00
3.467440000000000055e+03,8.475461792292207974e+00,2.266090446513761236e+00
3.469369000000000142e+03,8.508183415021449036e+00,2.167768077515862757e+00
3.471297000000000025e+03,8.539547363185192808e+00,2.068314577113316233e+00
3.473225999999999658e+03,8.569586171999617363e+00,1.958171290686951949e+00
3.475154000000000451e+03,8.598268697027378948e+00,1.844798467151726129e+00
3.477083000000000084e+03,8.625624691926077503e+00,1.708379039417206258e+00
3.479010999999999967e+03,8.651625793818766397e+00,1.594821967375263938e+00
3.480940000000000055e+03,8.676298974802193698e+00,1.472704756541091342e+00
3.482867999999999938e+03,8.699618653558900405e+00,1.315228361366475696e+00
3.484797000000000025e+03,8.721609020627511200e+00,1.137629785342639366e+00
3.486724999999999909e+03,8.742247276248690468e+00,9.907340670348929734e-01
3.488654000000000451e+03,8.761554829401575262e+00,8.251242750760354738e-01
3.490582000000000335e+03,8.779511661887227092e+00,6.543540097545630374e-01
3.492510999999999967e+03,8.796136401125295379e+00,4.939307630538074534e-01
3.494439000000000306e+03,8.811411810475419770e+00,3.634277417633882123e-01
3.496367999999999938e+03,8.825353735797762056e+00,2.304111895753706563e-01
3.498295999999999822e+03,8.837947722012359009e+00,9.818287500256772660e-02
3.500224999999999909e+03,8.849206833419884788e+00,-1.244146852720007246e-03
3.502152999999999793e+03,8.859119396498954302e+00,-5.097387411089471243e-02
3.504082000000000335e+03,8.867695693991208827e+00,-1.297964402598665856e-01
3.506010000000000218e+03,8.874926833934296155e+00,-2.193335503522035879e-01
3.507939000000000306e+03,8.880820317511734174e+00,-2.545703175117353112e-01
3.509867000000000189e+03,8.885370034319294064e+00,-2.604782432745196274e-01
3.511795999999999822e+03,8.888580703981006081e+00,-2.902523457720498357e-01
3.513724000000000160e+03,8.890448997653493279e+00,-2.947027289967749653e-01
3.515652999999999793e+03,8.890976853399479296e+00,-2.833275996681337006e-01
3.517580999999999676e+03,8.890163723935984308e+00,-2.398726791598662089e-01
3.519510000000000218e+03,8.888008765767608566e+00,-1.943856314392498064e-01
3.521438000000000102e+03,8.884514213168586139e+00,-1.143052579447072503e-01
3.523367000000000189e+03,8.879676441084484395e+00,-1.138912765165045471e-02
3.525295000000000073e+03,8.873500465349934530e+00,6.125699733663481084e-02
3.527224000000000160e+03,8.865979879351016280e+00,1.387887773654021828e-01
3.529152000000000044e+03,8.857122480480484228e+00,2.146722956389197634e-01
3.531080999999999676e+03,8.846919080566294724e+00,2.514913671948981744e-01
3.533009000000000015e+03,8.835380258560689981e+00,3.083249653199047202e-01
3.534938000000000102e+03,8.822494044730774476e+00,3.947820746722108254e-01
3.536865999999999985e+03,8.808273799589187547e+00,4.952336630973803722e-01
3.538795000000000073e+03,8.792704771844455536e+00,5.532168699465884742e-01
3.540722999999999956e+03,8.775803103567341168e+00,6.339468964326577805e-01
3.542652000000000044e+03,8.757551261907337903e+00,7.395233649583339286e-01
3.544579999999999927e+03,8.737968170495150844e+00,8.630766056242542561e-01
3.546509000000000015e+03,8.717033514919876325e+00,9.280933507517659109e-01
3.548436999999999898e+03,8.694769000371707079e+00,9.506563727626229365e-01
3.550365999999999985e+03,8.671151530880706559e+00,9.926842900148180604e-01
3.552294000000000324e+03,8.646205593197464623e+00,1.083999630683130988e+00
3.554222999999999956e+03,8.619905309791192849e+00,1.097609615581941256e+00
3.556150999999999840e+03,8.592277948971968726e+00,1.122722051028031132e+00
3.558079999999999927e+03,8.563294851651335193e+00,1.184846939393441545e+00
3.560007999999999811e+03,8.532986067696128885e+00,1.269017663647154848e+00
3.561936999999999898e+03,8.501320156460224098e+00,1.337691037569626928e+00
3.563864999999999782e+03,8.468329949369490350e+00,1.442483483466332927e+00
3.565794000000000324e+03,8.433981224217859562e+00,1.611578477274679955e+00
3.567722000000000207e+03,8.398309593992053124e+00,1.719145629888540583e+00
3.569650999999999840e+03,8.361278054925151082e+00,1.659229407761415587e+00
3.571579000000000178e+03,8.322925001563817204e+00,1.681735446197375694e+00
3.573507999999999811e+03,8.283210648581643909e+00,1.769763232015371557e+00
3.575435999999999694e+03,8.242176172084327845e+00,1.903085021945521760e+00
3.577364999999999782e+03,8.199779005187338043e+00,2.023064278394752336e+00
3.579292999999999665e+03,8.156063105554494541e+00,2.148433163102222210e+00
3.581222000000000207e+03,8.110983124741778738e+00,2.267098964810458028e+00
3.583150000000000091e+03,8.064585801973407797e+00,2.422891809966891685e+00
3.585079000000000178e+03,8.016823007245875488e+00,2.609900873351136852e+00
3.587007000000000062e+03,7.967744261341977108e+00,2.893763201344590641e+00
3.588935999999999694e+03,7.917298652699173545e+00,3.009544630882917460e+00
3.590864000000000033e+03,7.865538483659292979e+00,3.053062262609362421e+00
3.592792999999999665e+03,7.812410061101218162e+00,3.209821282182364399e+00
3.594720999999999549e+03,7.757968468926264904e+00,3.415691978834924925e+00
3.596650000000000091e+03,7.702157232452918834e+00,3.546495752621709130e+00
3.598577999999999975e+03,7.645034217141983390e+00,3.691036678380406499e+00
3.600507000000000062e+03,7.586540166753820813e+00,3.835538191455135859e+00
3.602434999999999945e+03,7.526735728307357931e+00,3.925618749304582877e+00
3.604364000000000033e+03,7.465558864003014605e+00,4.008844121071611255e+00
3.606291999999999916e+03,7.403073002421024285e+00,4.191531475190917178e+00
3.608220999999999549e+03,7.339213324202319200e+00,4.378499362364845382e+00
3.610149000000000342e+03,7.274046039484346693e+00,4.452659184396249969e+00
3.612077999999999975e+03,7.207503547350370354e+00,4.560712870560074350e+00
3.614005999999999858e+03,7.139654839497325156e+00,4.700244414234017398e+00
3.615934999999999945e+03,7.070429533448077564e+00,4.732253302372818382e+00
3.617862999999999829e+03,6.999899402459050179e+00,4.853705075152888071e+00
3.619791999999999916e+03,6.927991282494531333e+00,4.907131851833824498e+00
3.621719999999999800e+03,6.854779728369976510e+00,4.814630719391217895e+00
3.623649000000000342e+03,6.780188794490641158e+00,4.755952996554132284e+00
3.625577000000000226e+03,6.704295817230558896e+00,4.786812391724666327e+00
3.627505999999999858e+03,6.627022069435042795e+00,4.902037632057492544e+00
3.629434000000000196e+03,6.548447669039433094e+00,4.843059793647135791e+00
3.631362999999999829e+03,6.468491107329555234e+00,4.537202922521188952e+00
3.633290999999999713e+03,6.387235283798418095e+00,4.381283372917998520e+00
3.635219999999999800e+03,6.304595908172814234e+00,4.150113047051068094e+00
3.637147999999999683e+03,6.220658661506149656e+00,3.947516711628178854e+00
3.639077000000000226e+03,6.135336471965274541e+00,3.719779199676516157e+00
3.641005000000000109e+03,6.048717802163082524e+00,3.481222496344379636e+00
3.642934000000000196e+03,5.960712798706481408e+00,3.208753619203967844e+00
3.644862000000000080e+03,5.871412705768761953e+00,3.005393264380494145e+00
3.646790999999999713e+03,5.780724888397799077e+00,2.925916902646974904e+00
3.648719000000000051e+03,5.688743372324097436e+00,2.740995433646052248e+00
3.650647999999999683e+03,5.595372741037863307e+00,2.150436960454674029e+00
3.652575999999999567e+03,5.500709801828634227e+00,1.618215571305694489e+00
3.654505000000000109e+03,5.404656356627128844e+00,1.388060061283318269e+00
3.656432999999999993e+03,5.307311994282372325e+00,1.055665617657926880e+00
3.658362000000000080e+03,5.208575735165595688e+00,6.666705334911187109e-01
3.660289999999999964e+03,5.108549949684856983e+00,4.043231846435011434e-01
3.662219000000000051e+03,5.007130876652809093e+00,1.450146457352508023e-01
3.664146999999999935e+03,4.904423668036997697e+00,-7.358411579819179593e-02
3.666075999999999567e+03,4.800321781089678552e+00,-2.312993930299773737e-01
3.668004000000000360e+03,4.694933149337884970e+00,-2.602503135169884629e-01
3.669932999999999993e+03,4.588148448475749319e+00,-3.096074036996308010e-01
3.671860999999999876e+03,4.480078393588428298e+00,-5.301231697078305771e-01
3.673789999999999964e+03,4.370610878811021394e+00,-5.235511773184837736e-01
3.675717999999999847e+03,4.259859400788172934e+00,-5.215385052657834919e-01
3.677646999999999935e+03,4.147709072094585281e+00,-6.899254900050335593e-01
3.679574999999999818e+03,4.034276170936664130e+00,-7.501157231754698174e-01
3.681504000000000360e+03,3.919443028328259970e+00,-8.051258641491552126e-01
3.683432000000000244e+03,3.803328704034356633e+00,-7.863548234373416435e-01
3.685360999999999876e+03,3.685812747511135967e+00,-7.151784191529264589e-01
3.687289000000000215e+03,3.567017000081705191e+00,-5.797670000817047864e-01
3.689217999999999847e+03,3.446818229643213272e+00,-3.878443490461984666e-01
3.691145999999999731e+03,3.325341059078255057e+00,-3.623000143021348762e-01
3.693074999999999818e+03,3.202459474723582389e+00,-4.073699224847766587e-01
3.695002999999999702e+03,3.078300881023096736e+00,-3.609053586350379206e-01
3.696932000000000244e+03,2.952736482754062308e+00,-2.728334976794366540e-01
3.698860000000000127e+03,2.825896465917594469e+00,-1.647509435295342328e-01
