baseline wavenumber (cm-1),baseline absorbance (cm-1),baseline-subtracted absorbance (cm-1)
3199.3790000000004,0.1998801916861339,7.156719661338684e-12
3201.308,0.19896030707968748,0.0051964706473774935
3203.236,0.19854662673606072,0.010056750717156948
3205.165,0.198633135957607,0.017632267967541138
3207.093,0.1992141633409119,0.023340606170726863
3209.0209999999997,0.20028404524782673,0.030456484190785726
3210.95,0.2018381323896392,0.03466346505445017
3212.8779999999997,0.2038692317682944,0.04053400876114388
3214.8070000000002,0.20637386476573738,0.04573133833786813
3216.736,0.20934551338905294,0.04958419907101064
3218.664,0.21277669136088662,0.05316465962040029
3220.593,0.2166653724234493,0.057112582848116045
3222.5209999999997,0.22100194305858167,0.0580532828656537
3224.449,0.22578272226382978,0.06095963282517047
3226.3779999999997,0.23100495074959326,0.06336519986656386
3228.3059999999996,0.23665763236476778,0.06738960633902025
3230.235,0.24274104531923513,0.0683646141969676
3232.164,0.24924678161914926,0.07115828456067685
3234.092,0.256165557656459,0.07144512239831013
3236.0209999999997,0.26349896500869363,0.07315895374986403
3237.949,0.2712338186447596,0.07320593489243765
3239.877,0.2793682348983566,0.07425225802724778
3241.8059999999996,0.28790115917672665,0.07481221371236502
3243.7340000000004,0.2968181627775266,0.07714692165880366
3245.663,0.3061229101358549,0.07666691186323216
3247.592,0.3158052885637517,0.07406919797207645
3249.52,0.3258544024110961,0.07126791616489636
3251.448,0.33626959441062354,0.07194583233515472
3253.377,0.3470509668904924,0.07235911982790078
3255.305,0.35818175994063495,0.07171212413056494
3257.2340000000004,0.36966793445753865,0.06846533802078159
3259.1620000000003,0.38149199979307014,0.06642904082765066
3261.091,0.393660636003915,0.06279874327495283
3263.02,0.4061622110057215,0.060907620121617656
3264.948,0.4189844024149352,0.05854526440386931
3266.8759999999997,0.43212802602192824,0.05729461204288211
3268.805,0.44559456457864144,0.05439288407494103
3270.7329999999997,0.4593644741744356,0.05398559428745364
3272.6620000000003,0.4734464533821665,0.05290338687342433
3274.591,0.48782785217008495,0.0520705960270853
3276.5190000000002,0.5024953997117336,0.04700939262053461
3278.448,0.5174587257370149,0.042793442222820444
3280.3759999999997,0.532696734457204,0.038058628390810645
3282.304,0.5482115294234973,0.03625218577504197
3284.2329999999997,0.5640057885038914,0.03185340820993798
3286.1609999999996,0.5800575543953528,0.028504745924135877
3288.09,0.5963778927389285,0.024143558653129782
3290.0190000000002,0.6129529583859039,0.022555941659737178
3291.947,0.6297683780503576,0.02015060871367713
3293.875,0.6468270994964769,0.017624064355645563
3295.804,0.6641325753262208,0.011655877435075679
3297.732,0.6816612813991014,0.008245154018515999
3299.6609999999996,0.699425815451832,0.0031449285007008054
3301.5890000000004,0.7174021773889763,0.00029408002772801645
3303.518,0.7356034293161429,-0.0032825712604609425
3305.447,0.7540147162699213,-0.005087285872842573
3307.375,0.7726207478062861,-0.007885467112539457
3309.303,0.7914254351699128,-0.009855375836275604
3311.232,0.8104331018093944,-0.015493576478495585
3313.16,0.829618458738878,-0.017367203604236048
3315.0890000000004,0.8489958222126006,-0.021987606785855318
3317.0170000000003,0.8685395199427148,-0.02519287457530317
3318.946,0.8882642399039469,-0.030248493669350784
3320.875,0.908154302613184,-0.03340875263600451
3322.803,0.9281936857705659,-0.036793640129306526
3324.7309999999998,0.9483870788035347,-0.037263162783452985
3326.66,0.9687394906995905,-0.039632918358193825
3328.5879999999997,0.9892242382338736,-0.04240999816084767
3330.5170000000003,1.0098569855763344,-0.04833370853388819
3332.445,1.0306107588485247,-0.05017260275541635
3334.3740000000003,1.0515015012924778,-0.05181756701589202
3336.302,1.0725019715355302,-0.05086116824935938
3338.2309999999998,1.0936283687306059,-0.0541966024138556
3340.159,1.1148532071802038,-0.056122034199829196
3342.0879999999997,1.136192918782399,-0.05892797126984761
3344.0159999999996,1.1576197966714972,-0.05970902533420808
3345.945,1.1791504823304422,-0.06305052797170219
3347.873,1.2007570708947242,-0.06292731279340091
3349.802,1.2224563902664158,-0.06344224147590904
3351.73,1.2442203607388365,-0.06132099971647231
3353.659,1.2660659734765431,-0.061065973476542856
3355.587,1.2879649970909668,-0.05873975747435334
3357.5159999999996,1.3099345628461379,-0.058577876401592066
3359.4440000000004,1.3319463108400669,-0.05503850618465855
3361.373,1.3540174892650612,-0.05358161523493776
3363.302,1.3761311066709823,-0.04897912127618542
3365.23,1.3982700836177173,-0.04463019315674033
3367.158,1.4204402940704313,-0.03899232510648809
3369.087,1.4426476767957865,-0.03657396616137354
3371.015,1.464863625325961,-0.032291740341935826
3372.9440000000004,1.4871055996827636,-0.027106740714256228
3374.8720000000003,1.509344957527901,-0.01774409034396629
3376.801,1.5315991831666906,-0.010701191382117559
3378.7290000000003,1.5538396215615649,0.0007872611403978436
3380.658,1.5760837581365195,0.010683699645315015
3382.586,1.5983029483149949,0.02424041088171891
3384.515,1.6205146554793828,0.038195978934127295
3386.4429999999998,1.6426902686744143,0.05301488878793159
3388.3720000000003,1.6648472060787753,0.06433809743560137
3390.3,1.6869569135269558,0.08398215539134601
3392.2290000000003,1.7090367408272868,0.10610931120374922
3394.157,1.7310582137606616,0.1264212476724731
3396.086,1.7530385906093215,0.14439066543814527
3398.014,1.7749495002626645,0.16720476719511734
3399.9429999999998,1.7968080863120122,0.18648036644928445
3401.8709999999996,1.8185861039210067,0.21250472218579386
3403.8,1.840300558827039,0.23805521479231295
3405.728,1.8619233556237305,0.26627609668115326
3407.657,1.8834713390342586,0.29240269108897277
3409.585,1.904916586257059,0.3230592238753003
3411.514,1.9262757578253513,0.3517685141965554
3413.442,1.9475211267053965,0.38541588835621887
3415.3709999999996,1.9686691460883594,0.4164403929349181
3417.2990000000004,1.9896923078604232,0.4505655652568761
3419.228,2.0106068347104156,0.48690571663600135
3421.156,2.031385460607453,0.5273034942077004
3423.085,2.0520441545768335,0.5566881594350335
3425.013,2.0725559158345277,0.5880203050691692
3426.942,2.0929364365756555,0.621219200119917
3428.87,2.1131590044287805,0.6580288093548807
3430.7990000000004,2.1332390115940143,0.6884383046999156
3432.7270000000003,2.153150057277344,0.7219640458719034
3434.656,2.172907210521771,0.7506858976480144
3436.5840000000003,2.1924844052673507,0.7801171465354795
3438.513,2.2118963642424205,0.8055568534663875
3440.441,2.2311173792877526,0.8329104618806644
3442.37,2.2501618036467335,0.8577250060292139
3444.298,2.2690043102238633,0.8788882046095461
3446.2270000000003,2.287658859620933,0.900473271825895
3448.155,2.306100528963725,0.9156829032590048
3450.0840000000003,2.3243428630494236,0.9119693231669164
3452.012,2.34236136639538,0.9167771548278063
3453.941,2.360169144822976,0.9151355105855137
3455.869,2.377742153403233,0.9133406854831199
3457.798,2.395093035827813,0.9047631942041363
3459.7259999999997,2.4121982208780537,0.8962864892999471
3461.655,2.4290698669528865,0.8820460618467489
3463.583,2.445684899706066,0.8590480989246965
3465.512,2.4620549690816915,0.8312437529630365
3467.44,2.4781575207744027,0.8065709137303898
3469.369,2.494003673105908,0.7706642867297839
3471.297,2.509571414970196,0.7342750021909179
3473.2259999999997,2.52487130991085,0.6944794431699357
3475.1540000000005,2.539881913181489,0.6535708481147235
3477.083,2.5546132103827404,0.6054883414200898
3479.011,2.5690443462954136,0.5642829015366271
3480.94,2.5831847054096215,0.5203445049965865
3482.868,2.5970140451981933,0.46549051892777715
3484.797,2.610541125878626,0.4043790019169009
3486.725,2.623746340776961,0.3525647044078868
3488.6540000000005,2.636637802680525,0.2949345387160971
3490.5820000000003,2.6491965639233968,0.23564597373064267
3492.511,2.661430066696994,0.17943939930026787
3494.4390000000003,2.6733200455191763,0.13231322695914471
3496.368,2.6848732488188034,0.08434742667184025
3498.296,2.6960721164550705,0.03656480732402567
3500.225,2.706922679933996,-0.001247189290453754
3502.153,2.717408107614574,-0.02390856402717123
3504.0820000000003,2.7275336909269754,-0.05551520621679806
3506.01,2.7372833498884575,-0.09043373783916397
3507.9390000000003,2.746661612688513,-0.10878507229599776
3509.867,2.755653174166582,-0.11819196923732633
3511.796,2.7642617761011934,-0.1349235743668249
3513.724,2.772472911330624,-0.14392430338904472
3515.653,2.7802895120576068,-0.14810101365505002
3517.5809999999997,2.787697892268625,-0.14246968597013066
3519.51,2.7947001514412477,-0.13622114642070926
3521.438,2.8012834478722652,-0.11938477146879656
3523.367,2.807449025141068,-0.09555833595804675
3525.295,2.8131849090259493,-0.08096788483608108
3527.224,2.8184914640442003,-0.06486526596113329
3529.152,2.823357606614991,-0.049235059832700045
3531.0809999999997,2.827782799036868,-0.045521274618793406
3533.009,2.8317568715319794,-0.03564436582682262
3534.938,2.835278361010751,-0.016668137368577973
3536.866,2.8383380346595004,0.006641426773635217
3538.795,2.8409334808466156,0.017016085561417427
3540.723,2.843056426887415,0.034411624230796356
3542.652,2.8447034894361423,0.05946812170032523
3544.58,2.845867379101037,0.09009793354159257
3546.509,2.8465437176646446,0.10290174103001526
3548.437,2.8467262221902274,0.10281051902383087
3550.366,2.8464094964228934,0.10875709417500712
3552.2940000000003,2.8455882870403,0.12987383071414982
3554.223,2.844256156595293,0.12732531305326944
3556.151,2.842408904538388,0.12840350988425087
3558.08,2.8400390290689757,0.14090802706977446
3560.008,2.8371434055752616,0.16027444015728065
3561.937,2.833713444731984,0.17502115134286722
3563.865,2.829747121033506,0.20094434405093065
3565.7940000000003,2.825234734469632,0.24666165987085265
3567.722,2.820175381802983,0.2737064073343971
3569.651,2.81455822917178,0.2496772797282647
3571.579,2.808383518771734,0.2510060293797949
3573.508,2.801639259726471,0.2725243641895494
3575.4359999999997,2.7943268628232545,0.30805789299600583
3577.365,2.7864331570199283,0.3396759255907522
3579.2929999999997,2.7779607448510433,0.3731175299093401
3581.222,2.768895251939284,0.40468530488408394
3583.15,2.7592404957395047,0.4477928223800758
3585.079,2.748980875370762,0.5006334559847829
3587.007,2.738121446371224,0.5832888685534687
3588.9359999999997,2.726645358202404,0.614744418155424
3590.864,2.71455892764061,0.6243103101503529
3592.7929999999997,2.7018440313240717,0.6687150741072383
3594.7209999999995,2.688508270431157,0.7283573160590295
3596.65,2.674532225620169,0.7652658118056648
3598.578,2.6599248056318174,0.8066053175995842
3600.507,2.6446652719778285,0.8481656271549882
3602.435,2.6287638641297235,0.8733253645329881
3604.364,2.6121985012860023,0.8966330824657094
3606.292,2.5949807768110986,0.9506079954390163
3608.2209999999995,2.577087244430004,1.0061475798511461
3610.1490000000003,2.558530874562166,1.0274538356158347
3612.078,2.539286832298785,1.0593918532329356
3614.006,2.5193694882755153,1.1012295532580314
3615.935,2.498752595780388,1.1104657976472705
3617.863,2.4774519488328224,1.1473381013725632
3619.792,2.4554398657610363,1.1636986554621487
3621.72,2.432733587124858,1.1357305844862795
3623.6490000000003,2.4093039731269528,1.118407117699154
3625.577,2.385169734037845,1.1287702477056518
3627.506,2.3603002487698177,1.1652451642835828
3629.434,2.334715720458007,1.1487667076570096
3631.363,2.3083840235703974,1.057118030286289
3633.2909999999997,2.281326877274296,1.0116477918265714
3635.22,2.253510628418553,0.9435021511341635
3637.1479999999997,2.2249585353729344,0.8844332948415801
3639.077,2.1956353942068745,0.8180238937894737
3641.005,2.165566025640146,0.7486557908819904
3642.934,2.134713651816128,0.6692765353130374
3644.862,2.1031046789667016,0.6113909851136281
3646.7909999999997,2.070700732135265,0.5917593317624981
3648.719,2.0375298262379147,0.5402542906037109
3650.6479999999997,2.0035519660523278,0.3650890654401415
3652.5759999999996,1.9687967983418275,0.2081452372583552
3654.505,1.9332226844544493,0.14396581394810593
3656.433,1.8968609261628444,0.04891497525203481
3658.362,1.8596682182296718,-0.06303882525842641
3660.29,1.8216775405908265,-0.1358605620422184
3662.219,1.7828438982651278,-0.20733613925097916
3664.147,1.7432019725147256,-0.26594843531709933
3666.0759999999996,1.7027050554452217,-0.3055142749796811
3668.0040000000004,1.661389552820765,-0.30527932917859224
3669.933,1.619207020662543,-0.3108444008542366
3671.861,1.5761956123933487,-0.36831336684337157
3673.79,1.5323051247987678,-0.3558879636851213
3675.718,1.4875754821223381,-0.34441026076222836
3677.647,1.441954698745576,-0.38457678911527027
3679.575,1.3954844928939565,-0.39119991963973466
3681.5040000000004,1.348111073389191,-0.39576397160918186
3683.4320000000002,1.2998779755971555,-0.37729810339268277
3685.361,1.250729579615836,-0.34232017751633825
3687.289,1.2007112611199773,-0.28722084578451423
3689.218,1.1497655483144626,-0.21434222563075633
3691.1459999999997,1.0979396803459167,-0.19185227733359356
3693.075,1.0451743103722038,-0.19044587586741124
3695.0029999999997,0.9915185641657445,-0.16054868739714556
3696.9320000000002,0.9369111966716446,-0.11740640433937632
3698.86,0.8814032434647743,-0.06189845113250603
